Time (s),Temperature (K),1/kT (1/eV),Rate (K/min),Current (A),Current Std Dev/Mean,Conductivity (Ohm-cm)^-1,Ea (eV),Reduced Ea
2.63E+01,4.7973E+02,2.42E+01,-1.71E+00,4.07750E-04,1.91050E-03,4.07750E-03,NaN,NaN
3.65E+01,4.7944E+02,2.42E+01,-1.17E+00,4.05020E-04,2.07999E-03,4.05020E-03,NaN,NaN
4.62E+01,4.7925E+02,2.42E+01,-4.73E-01,4.02612E-04,1.39947E-03,4.02612E-03,5.41E-01,1.31E+01
5.64E+01,4.7917E+02,2.42E+01,-5.33E-01,4.01400E-04,5.67553E-04,4.01400E-03,4.28E-01,1.04E+01
6.65E+01,4.7908E+02,2.42E+01,-1.26E+00,4.00826E-04,5.21119E-04,4.00826E-03,3.72E-01,9.01E+00
8.28E+01,4.7874E+02,2.42E+01,-1.37E+00,3.98764E-04,1.51211E-03,3.98764E-03,3.94E-01,9.53E+00
9.24E+01,4.7852E+02,2.42E+01,-9.43E-01,3.96674E-04,1.72263E-03,3.96674E-03,4.42E-01,1.07E+01
1.03E+02,4.7836E+02,2.42E+01,-7.21E-01,3.94756E-04,1.25472E-03,3.94756E-03,5.07E-01,1.23E+01
1.13E+02,4.7824E+02,2.42E+01,-9.64E-01,3.93410E-04,9.13132E-04,3.93410E-03,4.80E-01,1.16E+01
1.27E+02,4.7801E+02,2.43E+01,-1.24E+00,3.91516E-04,1.30471E-03,3.91516E-03,4.52E-01,1.10E+01
1.39E+02,4.7776E+02,2.43E+01,-1.08E+00,3.89268E-04,1.26419E-03,3.89268E-03,4.62E-01,1.12E+01
1.49E+02,4.7758E+02,2.43E+01,-8.55E-01,3.87644E-04,1.37107E-03,3.87644E-03,4.84E-01,1.18E+01
1.59E+02,4.7744E+02,2.43E+01,-9.38E-01,3.86016E-04,1.36597E-03,3.86016E-03,4.75E-01,1.15E+01
1.73E+02,4.7722E+02,2.43E+01,-1.06E+00,3.84044E-04,9.55942E-04,3.84044E-03,4.69E-01,1.14E+01
1.85E+02,4.7700E+02,2.43E+01,-1.08E+00,3.82266E-04,1.39956E-03,3.82266E-03,4.73E-01,1.15E+01
1.95E+02,4.7682E+02,2.43E+01,-9.99E-01,3.80498E-04,1.53486E-03,3.80498E-03,4.93E-01,1.20E+01
2.07E+02,4.7662E+02,2.43E+01,-8.93E-01,3.78376E-04,1.52586E-03,3.78376E-03,5.28E-01,1.28E+01
2.19E+02,4.7644E+02,2.43E+01,-1.04E+00,3.76696E-04,9.80178E-04,3.76696E-03,4.61E-01,1.12E+01
2.34E+02,4.7619E+02,2.43E+01,-1.17E+00,3.73996E-04,1.49682E-03,3.73996E-03,3.24E-01,7.88E+00
2.44E+02,4.7599E+02,2.44E+01,-9.27E-01,3.73418E-04,3.32663E-03,3.73418E-03,2.60E-01,6.34E+00
2.54E+02,4.7583E+02,2.44E+01,-9.96E-01,3.73846E-04,9.48665E-04,3.73846E-03,2.70E-01,6.57E+00
2.66E+02,4.7563E+02,2.44E+01,-9.23E-01,3.71982E-04,2.22028E-03,3.71982E-03,4.14E-01,1.01E+01
2.79E+02,4.7544E+02,2.44E+01,-1.07E+00,3.69986E-04,1.90951E-03,3.69986E-03,5.06E-01,1.23E+01
2.93E+02,4.7519E+02,2.44E+01,-8.94E-01,3.67646E-04,9.68682E-04,3.67646E-03,4.71E-01,1.15E+01
3.03E+02,4.7504E+02,2.44E+01,-1.02E+00,3.66318E-04,1.05222E-03,3.66318E-03,4.16E-01,1.01E+01
3.15E+02,4.7484E+02,2.44E+01,-9.98E-01,3.65016E-04,1.09149E-03,3.65016E-03,5.08E-01,1.24E+01
3.27E+02,4.7464E+02,2.44E+01,-9.71E-01,3.63680E-04,1.51980E-03,3.63680E-03,3.84E-01,9.38E+00
3.41E+02,4.7441E+02,2.44E+01,-1.10E+00,3.59752E-04,1.52357E-03,3.59752E-03,4.58E-01,1.12E+01
3.53E+02,4.7419E+02,2.45E+01,-1.10E+00,3.61300E-04,2.65404E-03,3.61300E-03,5.19E-01,1.27E+01
3.63E+02,4.7401E+02,2.45E+01,-9.60E-01,3.57146E-04,3.34656E-03,3.57146E-03,5.85E-01,1.43E+01
3.75E+02,4.7381E+02,2.45E+01,-8.89E-01,3.54988E-04,1.94265E-03,3.54988E-03,7.27E-01,1.78E+01
3.87E+02,4.7363E+02,2.45E+01,-1.01E+00,3.52318E-04,2.07291E-03,3.52318E-03,5.70E-01,1.40E+01
4.00E+02,4.7342E+02,2.45E+01,-1.14E+00,3.50832E-04,1.54492E-03,3.50832E-03,5.52E-01,1.35E+01
4.12E+02,4.7319E+02,2.45E+01,-1.00E+00,3.48628E-04,1.63591E-03,3.48628E-03,5.13E-01,1.26E+01
4.22E+02,4.7302E+02,2.45E+01,-8.83E-01,3.46678E-04,1.72354E-03,3.46678E-03,5.00E-01,1.23E+01
4.34E+02,4.7284E+02,2.45E+01,-9.81E-01,3.45212E-04,9.19331E-04,3.45212E-03,4.72E-01,1.16E+01
4.49E+02,4.7261E+02,2.45E+01,-1.13E+00,3.43658E-04,1.14717E-03,3.43658E-03,4.53E-01,1.11E+01
4.61E+02,4.7238E+02,2.45E+01,-1.04E+00,3.41538E-04,1.32558E-03,3.41538E-03,4.71E-01,1.16E+01
4.70E+02,4.7221E+02,2.46E+01,-9.16E-01,3.40116E-04,1.29328E-03,3.40116E-03,4.72E-01,1.16E+01
4.83E+02,4.7202E+02,2.46E+01,-9.68E-01,3.38430E-04,1.14592E-03,3.38430E-03,4.17E-01,1.02E+01
4.95E+02,4.7182E+02,2.46E+01,-9.85E-01,3.37124E-04,1.05597E-03,3.37124E-03,4.29E-01,1.05E+01
5.08E+02,4.7162E+02,2.46E+01,-9.28E-01,3.36000E-04,3.47692E-03,3.36000E-03,4.36E-01,1.07E+01
5.20E+02,4.7143E+02,2.46E+01,-1.19E+00,3.33944E-04,1.33325E-03,3.33944E-03,4.81E-01,1.18E+01
5.30E+02,4.7123E+02,2.46E+01,-9.16E-01,3.32500E-04,1.62559E-03,3.32500E-03,5.11E-01,1.26E+01
5.42E+02,4.7104E+02,2.46E+01,-9.30E-01,3.30692E-04,1.19521E-03,3.30692E-03,2.96E-01,7.29E+00
5.55E+02,4.7085E+02,2.46E+01,-1.06E+00,3.29056E-04,1.19773E-03,3.29056E-03,1.97E-01,4.85E+00
5.69E+02,4.7060E+02,2.46E+01,-1.11E+00,3.30256E-04,7.44347E-04,3.30256E-03,1.55E-01,3.81E+00
5.79E+02,4.7041E+02,2.46E+01,-1.04E+00,3.29036E-04,1.62143E-03,3.29036E-03,2.06E-01,5.06E+00
5.91E+02,4.7020E+02,2.47E+01,-8.33E-01,3.27790E-04,1.43531E-03,3.27790E-03,3.67E-01,9.06E+00
6.01E+02,4.7006E+02,2.47E+01,-9.50E-01,3.26580E-04,6.09722E-04,3.26580E-03,3.88E-01,9.57E+00
6.15E+02,4.6984E+02,2.47E+01,-1.10E+00,3.25556E-04,1.56800E-03,3.25556E-03,4.26E-01,1.05E+01
6.27E+02,4.6962E+02,2.47E+01,-1.00E+00,3.23698E-04,1.37767E-03,3.23698E-03,4.53E-01,1.12E+01
6.39E+02,4.6942E+02,2.47E+01,-9.90E-01,3.21954E-04,1.42938E-03,3.21954E-03,4.94E-01,1.22E+01
6.51E+02,4.6922E+02,2.47E+01,-9.34E-01,3.20268E-04,1.41155E-03,3.20268E-03,4.80E-01,1.19E+01
6.63E+02,4.6903E+02,2.47E+01,-9.53E-01,3.18816E-04,1.05755E-03,3.18816E-03,4.59E-01,1.14E+01
6.75E+02,4.6884E+02,2.47E+01,-1.10E+00,3.17374E-04,1.28735E-03,3.17374E-03,4.48E-01,1.11E+01
6.87E+02,4.6862E+02,2.47E+01,-1.10E+00,3.15756E-04,1.42332E-03,3.15756E-03,4.45E-01,1.10E+01
6.99E+02,4.6840E+02,2.48E+01,-9.30E-01,3.14106E-04,1.17808E-03,3.14106E-03,4.41E-01,1.09E+01
7.10E+02,4.6824E+02,2.48E+01,-9.79E-01,3.12960E-04,1.22280E-03,3.12960E-03,4.35E-01,1.08E+01
7.22E+02,4.6804E+02,2.48E+01,-9.74E-01,3.11524E-04,1.10235E-03,3.11524E-03,4.32E-01,1.07E+01
7.36E+02,4.6781E+02,2.48E+01,-1.01E+00,3.09926E-04,1.01614E-03,3.09926E-03,4.09E-01,1.01E+01
7.48E+02,4.6761E+02,2.48E+01,-1.06E+00,3.08472E-04,9.77225E-04,3.08472E-03,3.86E-01,9.57E+00
7.60E+02,4.6739E+02,2.48E+01,-9.70E-01,3.07320E-04,1.20220E-03,3.07320E-03,3.60E-01,8.92E+00
7.70E+02,4.6723E+02,2.48E+01,-8.83E-01,3.06388E-04,7.99939E-04,3.06388E-03,3.54E-01,8.78E+00
7.85E+02,4.6702E+02,2.48E+01,-1.12E+00,3.05216E-04,9.77325E-04,3.05216E-03,3.97E-01,9.86E+00
7.97E+02,4.6679E+02,2.48E+01,-1.19E+00,3.03746E-04,1.51023E-03,3.03746E-03,4.32E-01,1.07E+01
8.07E+02,4.6659E+02,2.48E+01,-9.18E-01,3.02086E-04,1.88726E-03,3.02086E-03,4.64E-01,1.15E+01
8.18E+02,4.6643E+02,2.49E+01,-8.70E-01,3.00852E-04,1.10626E-03,3.00852E-03,4.69E-01,1.17E+01
8.30E+02,4.6625E+02,2.49E+01,-9.45E-01,2.99558E-04,1.38977E-03,2.99558E-03,4.49E-01,1.12E+01
8.45E+02,4.6602E+02,2.49E+01,-1.09E+00,2.97938E-04,1.19528E-03,2.97938E-03,4.45E-01,1.11E+01
8.57E+02,4.6580E+02,2.49E+01,-1.05E+00,2.96398E-04,1.83873E-03,2.96398E-03,4.52E-01,1.12E+01
8.67E+02,4.6562E+02,2.49E+01,-9.61E-01,2.95110E-04,1.21611E-03,2.95110E-03,4.61E-01,1.15E+01
8.79E+02,4.6542E+02,2.49E+01,-9.10E-01,2.93592E-04,1.27248E-03,2.93592E-03,4.50E-01,1.12E+01
8.91E+02,4.6524E+02,2.49E+01,-1.05E+00,2.92280E-04,1.19234E-03,2.92280E-03,4.39E-01,1.09E+01
9.03E+02,4.6503E+02,2.49E+01,-1.06E+00,2.91018E-04,1.09296E-03,2.91018E-03,4.35E-01,1.08E+01
9.15E+02,4.6482E+02,2.49E+01,-1.00E+00,2.89552E-04,1.23473E-03,2.89552E-03,4.42E-01,1.10E+01
9.27E+02,4.6462E+02,2.50E+01,-1.01E+00,2.88110E-04,1.55340E-03,2.88110E-03,4.76E-01,1.19E+01
9.39E+02,4.6441E+02,2.50E+01,-8.71E-01,2.86620E-04,1.36827E-03,2.86620E-03,4.83E-01,1.21E+01
9.52E+02,4.6423E+02,2.50E+01,-1.00E+00,2.85070E-04,1.41648E-03,2.85070E-03,4.86E-01,1.22E+01
9.64E+02,4.6403E+02,2.50E+01,-1.13E+00,2.83734E-04,1.66258E-03,2.83734E-03,4.94E-01,1.23E+01
9.76E+02,4.6380E+02,2.50E+01,-9.50E-01,2.82012E-04,1.48938E-03,2.82012E-03,4.86E-01,1.22E+01
9.86E+02,4.6364E+02,2.50E+01,-8.97E-01,2.80716E-04,1.17788E-03,2.80716E-03,4.69E-01,1.17E+01
1.00E+03,4.6343E+02,2.50E+01,-1.13E+00,2.79214E-04,1.09765E-03,2.79214E-03,4.53E-01,1.13E+01
1.01E+03,4.6320E+02,2.50E+01,-9.56E-01,2.77910E-04,1.58488E-03,2.77910E-03,4.26E-01,1.07E+01
1.02E+03,4.6304E+02,2.50E+01,-1.01E+00,2.76702E-04,1.24916E-03,2.76702E-03,4.19E-01,1.05E+01
1.03E+03,4.6284E+02,2.50E+01,-1.02E+00,2.75594E-04,9.94574E-04,2.75594E-03,4.47E-01,1.12E+01
1.05E+03,4.6264E+02,2.51E+01,-9.35E-01,2.74280E-04,1.46450E-03,2.74280E-03,4.61E-01,1.15E+01
1.06E+03,4.6242E+02,2.51E+01,-9.78E-01,2.72596E-04,1.71371E-03,2.72596E-03,4.74E-01,1.19E+01
1.07E+03,4.6222E+02,2.51E+01,-1.05E+00,2.71166E-04,1.46901E-03,2.71166E-03,4.70E-01,1.18E+01
1.08E+03,4.6201E+02,2.51E+01,-1.03E+00,2.69864E-04,1.33981E-03,2.69864E-03,4.63E-01,1.16E+01
1.10E+03,4.6180E+02,2.51E+01,-9.45E-01,2.68410E-04,1.61862E-03,2.68410E-03,4.60E-01,1.15E+01
1.11E+03,4.6164E+02,2.51E+01,-9.82E-01,2.67242E-04,1.21926E-03,2.67242E-03,4.44E-01,1.11E+01
1.12E+03,4.6141E+02,2.51E+01,-1.11E+00,2.65790E-04,1.20543E-03,2.65790E-03,4.17E-01,1.05E+01
1.13E+03,4.6118E+02,2.51E+01,-1.13E+00,2.64542E-04,1.06630E-03,2.64542E-03,4.14E-01,1.04E+01
1.14E+03,4.6099E+02,2.52E+01,-8.69E-01,2.63460E-04,1.38346E-03,2.63460E-03,4.36E-01,1.10E+01
1.15E+03,4.6084E+02,2.52E+01,-8.71E-01,2.62354E-04,1.26090E-03,2.62354E-03,4.54E-01,1.14E+01
1.17E+03,4.6063E+02,2.52E+01,-1.08E+00,2.60916E-04,8.35571E-04,2.60916E-03,4.55E-01,1.15E+01
1.18E+03,4.6040E+02,2.52E+01,-1.07E+00,2.59564E-04,1.52181E-03,2.59564E-03,4.34E-01,1.09E+01
1.19E+03,4.6022E+02,2.52E+01,-9.92E-01,2.58420E-04,1.21016E-03,2.58420E-03,4.30E-01,1.08E+01
1.20E+03,4.6002E+02,2.52E+01,-8.59E-01,2.57276E-04,1.00406E-03,2.57276E-03,4.29E-01,1.08E+01
1.22E+03,4.5985E+02,2.52E+01,-1.11E+00,2.56156E-04,1.20629E-03,2.56156E-03,4.29E-01,1.08E+01
1.23E+03,4.5959E+02,2.52E+01,-1.04E+00,2.54670E-04,1.42311E-03,2.54670E-03,4.45E-01,1.12E+01
1.24E+03,4.5941E+02,2.52E+01,-1.07E+00,2.53548E-04,1.46073E-03,2.53548E-03,4.53E-01,1.14E+01
1.25E+03,4.5919E+02,2.52E+01,-9.13E-01,2.52040E-04,1.51914E-03,2.52040E-03,4.62E-01,1.17E+01
1.26E+03,4.5904E+02,2.53E+01,-8.39E-01,2.51082E-04,9.95053E-04,2.51082E-03,4.25E-01,1.07E+01
1.27E+03,4.5887E+02,2.53E+01,-1.07E+00,2.50114E-04,1.00616E-03,2.50114E-03,4.02E-01,1.02E+01
1.29E+03,4.5862E+02,2.53E+01,-1.00E+00,2.48914E-04,1.08828E-03,2.48914E-03,3.98E-01,1.01E+01
1.30E+03,4.5842E+02,2.53E+01,-1.14E+00,2.47688E-04,1.50750E-03,2.47688E-03,4.19E-01,1.06E+01
1.31E+03,4.5823E+02,2.53E+01,-8.79E-01,2.46632E-04,1.26521E-03,2.46632E-03,3.99E-01,1.01E+01
1.32E+03,4.5805E+02,2.53E+01,-9.56E-01,2.45428E-04,1.22486E-03,2.45428E-03,3.76E-01,9.51E+00
1.34E+03,4.5782E+02,2.53E+01,-1.15E+00,2.44674E-04,1.10563E-03,2.44674E-03,3.86E-01,9.79E+00
1.35E+03,4.5759E+02,2.53E+01,-1.06E+00,2.43368E-04,1.50229E-03,2.43368E-03,4.12E-01,1.04E+01
1.36E+03,4.5741E+02,2.53E+01,-9.47E-01,2.42156E-04,1.46457E-03,2.42156E-03,4.67E-01,1.18E+01
1.37E+03,4.5722E+02,2.54E+01,-9.03E-01,2.40914E-04,1.02249E-03,2.40914E-03,4.69E-01,1.19E+01
1.38E+03,4.5704E+02,2.54E+01,-1.02E+00,2.39846E-04,1.30707E-03,2.39846E-03,4.52E-01,1.15E+01
1.40E+03,4.5680E+02,2.54E+01,-1.02E+00,2.38412E-04,1.25532E-03,2.38412E-03,4.48E-01,1.14E+01
1.41E+03,4.5663E+02,2.54E+01,-1.02E+00,2.37450E-04,1.45705E-03,2.37450E-03,4.46E-01,1.13E+01
1.42E+03,4.5641E+02,2.54E+01,-9.59E-01,2.36090E-04,1.23635E-03,2.36090E-03,4.38E-01,1.11E+01
1.43E+03,4.5621E+02,2.54E+01,-9.84E-01,2.34972E-04,1.46915E-03,2.34972E-03,4.29E-01,1.09E+01
1.44E+03,4.5601E+02,2.54E+01,-1.04E+00,2.33896E-04,1.02235E-03,2.33896E-03,4.32E-01,1.10E+01
1.46E+03,4.5580E+02,2.54E+01,-1.03E+00,2.32762E-04,1.38329E-03,2.32762E-03,4.33E-01,1.10E+01
1.47E+03,4.5563E+02,2.54E+01,-1.04E+00,2.31640E-04,1.49765E-03,2.31640E-03,4.41E-01,1.12E+01
1.48E+03,4.5542E+02,2.55E+01,-9.31E-01,2.30586E-04,1.57043E-03,2.30586E-03,4.65E-01,1.18E+01
1.49E+03,4.5523E+02,2.55E+01,-9.67E-01,2.29442E-04,1.35265E-03,2.29442E-03,4.52E-01,1.15E+01
1.50E+03,4.5504E+02,2.55E+01,-9.45E-01,2.28110E-04,1.28560E-03,2.28110E-03,4.41E-01,1.12E+01
1.51E+03,4.5485E+02,2.55E+01,-9.91E-01,2.27242E-04,1.28728E-03,2.27242E-03,4.25E-01,1.08E+01
1.53E+03,4.5465E+02,2.55E+01,-1.02E+00,2.26268E-04,1.02910E-03,2.26268E-03,4.23E-01,1.08E+01
1.54E+03,4.5441E+02,2.55E+01,-1.06E+00,2.24866E-04,1.48649E-03,2.24866E-03,4.43E-01,1.13E+01
1.55E+03,4.5420E+02,2.55E+01,-9.67E-01,2.23624E-04,1.21753E-03,2.23624E-03,4.49E-01,1.15E+01
1.56E+03,4.5404E+02,2.55E+01,-9.70E-01,2.22778E-04,1.41997E-03,2.22778E-03,4.32E-01,1.10E+01
1.58E+03,4.5384E+02,2.55E+01,-1.10E+00,2.21692E-04,1.35713E-03,2.21692E-03,4.21E-01,1.07E+01
1.59E+03,4.5362E+02,2.56E+01,-1.03E+00,2.20584E-04,1.46255E-03,2.20584E-03,4.16E-01,1.06E+01
1.60E+03,4.5341E+02,2.56E+01,-9.70E-01,2.19474E-04,1.18491E-03,2.19474E-03,4.13E-01,1.06E+01
1.61E+03,4.5321E+02,2.56E+01,-8.95E-01,2.18478E-04,1.12926E-03,2.18478E-03,4.10E-01,1.05E+01
1.62E+03,4.5303E+02,2.56E+01,-1.03E+00,2.17548E-04,1.10627E-03,2.17548E-03,4.17E-01,1.07E+01
1.64E+03,4.5282E+02,2.56E+01,-1.05E+00,2.16544E-04,1.41155E-03,2.16544E-03,4.35E-01,1.11E+01
1.65E+03,4.5261E+02,2.56E+01,-1.02E+00,2.15344E-04,1.56191E-03,2.15344E-03,4.51E-01,1.16E+01
1.66E+03,4.5240E+02,2.56E+01,-8.86E-01,2.14156E-04,1.32962E-03,2.14156E-03,4.59E-01,1.18E+01
1.67E+03,4.5225E+02,2.56E+01,-9.91E-01,2.13292E-04,1.27599E-03,2.13292E-03,4.43E-01,1.14E+01
1.68E+03,4.5201E+02,2.56E+01,-1.10E+00,2.12050E-04,1.35165E-03,2.12050E-03,4.40E-01,1.13E+01
1.70E+03,4.5182E+02,2.57E+01,-1.01E+00,2.11120E-04,1.40950E-03,2.11120E-03,4.41E-01,1.13E+01
1.71E+03,4.5162E+02,2.57E+01,-9.34E-01,2.09964E-04,1.35700E-03,2.09964E-03,4.41E-01,1.13E+01
1.72E+03,4.5146E+02,2.57E+01,-1.00E+00,2.09116E-04,1.22508E-03,2.09116E-03,4.40E-01,1.13E+01
1.73E+03,4.5122E+02,2.57E+01,-9.73E-01,2.07944E-04,1.22492E-03,2.07944E-03,4.37E-01,1.12E+01
1.74E+03,4.5102E+02,2.57E+01,-1.04E+00,2.06890E-04,1.57218E-03,2.06890E-03,4.47E-01,1.15E+01
1.76E+03,4.5081E+02,2.57E+01,-1.04E+00,2.05744E-04,1.36853E-03,2.05744E-03,4.60E-01,1.18E+01
1.77E+03,4.5060E+02,2.57E+01,-9.48E-01,2.04604E-04,1.34499E-03,2.04604E-03,4.54E-01,1.17E+01
1.78E+03,4.5044E+02,2.57E+01,-9.90E-01,2.03744E-04,1.27309E-03,2.03744E-03,4.40E-01,1.13E+01
1.79E+03,4.5021E+02,2.58E+01,-1.10E+00,2.02602E-04,1.21875E-03,2.02602E-03,4.60E-01,1.18E+01
1.80E+03,4.4999E+02,2.58E+01,-1.06E+00,2.01544E-04,1.53797E-03,2.01544E-03,4.82E-01,1.24E+01
1.81E+03,4.4981E+02,2.58E+01,-8.89E-01,2.00285E-04,1.56067E-03,2.00285E-03,4.98E-01,1.28E+01
1.83E+03,4.4963E+02,2.58E+01,-9.13E-01,1.99266E-04,1.23676E-03,1.99266E-03,4.78E-01,1.23E+01
1.84E+03,4.4945E+02,2.58E+01,-1.05E+00,1.98362E-04,1.28319E-03,1.98362E-03,4.39E-01,1.13E+01
1.85E+03,4.4921E+02,2.58E+01,-1.06E+00,1.97236E-04,1.38482E-03,1.97236E-03,4.39E-01,1.13E+01
1.86E+03,4.4900E+02,2.58E+01,-9.07E-01,1.96200E-04,1.37266E-03,1.96200E-03,4.50E-01,1.16E+01
1.87E+03,4.4885E+02,2.58E+01,-9.56E-01,1.95338E-04,1.29606E-03,1.95338E-03,4.46E-01,1.15E+01
1.89E+03,4.4863E+02,2.58E+01,-1.12E+00,1.94224E-04,1.34817E-03,1.94224E-03,4.11E-01,1.06E+01
1.90E+03,4.4841E+02,2.59E+01,-1.04E+00,1.93271E-04,1.02762E-03,1.93271E-03,3.94E-01,1.02E+01
1.91E+03,4.4821E+02,2.59E+01,-9.84E-01,1.92571E-04,1.40537E-03,1.92571E-03,3.89E-01,1.01E+01
1.92E+03,4.4802E+02,2.59E+01,-9.51E-01,1.91597E-04,1.32369E-03,1.91597E-03,4.07E-01,1.05E+01
1.94E+03,4.4783E+02,2.59E+01,-9.59E-01,1.90762E-04,1.19455E-03,1.90762E-03,4.29E-01,1.11E+01
1.95E+03,4.4764E+02,2.59E+01,-9.99E-01,1.89850E-04,1.28793E-03,1.89850E-03,4.30E-01,1.11E+01
1.96E+03,4.4741E+02,2.59E+01,-9.72E-01,1.88761E-04,1.32714E-03,1.88761E-03,4.40E-01,1.14E+01
1.97E+03,4.4722E+02,2.59E+01,-9.76E-01,1.87825E-04,1.33273E-03,1.87825E-03,4.38E-01,1.13E+01
1.98E+03,4.4703E+02,2.59E+01,-1.05E+00,1.86912E-04,1.34365E-03,1.86912E-03,4.34E-01,1.12E+01
2.00E+03,4.4682E+02,2.59E+01,-1.11E+00,1.85958E-04,1.42102E-03,1.85958E-03,4.36E-01,1.13E+01
2.01E+03,4.4660E+02,2.60E+01,-9.47E-01,1.84945E-04,1.34163E-03,1.84945E-03,4.41E-01,1.14E+01
2.02E+03,4.4644E+02,2.60E+01,-9.48E-01,1.84122E-04,1.35202E-03,1.84122E-03,4.40E-01,1.14E+01
2.03E+03,4.4625E+02,2.60E+01,-9.87E-01,1.83224E-04,1.26794E-03,1.83224E-03,4.38E-01,1.14E+01
2.04E+03,4.4602E+02,2.60E+01,-9.81E-01,1.82213E-04,1.25929E-03,1.82213E-03,4.32E-01,1.12E+01
2.06E+03,4.4583E+02,2.60E+01,-1.06E+00,1.81317E-04,1.30484E-03,1.81317E-03,4.35E-01,1.13E+01
2.07E+03,4.4562E+02,2.60E+01,-1.01E+00,1.80352E-04,1.39576E-03,1.80352E-03,4.44E-01,1.15E+01
2.08E+03,4.4542E+02,2.60E+01,-8.68E-01,1.79419E-04,1.23775E-03,1.79419E-03,4.39E-01,1.14E+01
2.09E+03,4.4525E+02,2.60E+01,-1.01E+00,1.78605E-04,1.18809E-03,1.78605E-03,4.34E-01,1.13E+01
2.10E+03,4.4502E+02,2.61E+01,-1.13E+00,1.77603E-04,1.29457E-03,1.77603E-03,4.33E-01,1.13E+01
2.12E+03,4.4480E+02,2.61E+01,-1.12E+00,1.76634E-04,1.54107E-03,1.76634E-03,4.41E-01,1.15E+01
2.13E+03,4.4462E+02,2.61E+01,-9.34E-01,1.75786E-04,1.42899E-03,1.75786E-03,4.57E-01,1.19E+01
2.14E+03,4.4444E+02,2.61E+01,-8.29E-01,1.74890E-04,1.21769E-03,1.74890E-03,4.48E-01,1.17E+01
2.15E+03,4.4425E+02,2.61E+01,-1.07E+00,1.73994E-04,1.10873E-03,1.73994E-03,4.32E-01,1.13E+01
2.17E+03,4.4400E+02,2.61E+01,-1.09E+00,1.72989E-04,1.39527E-03,1.72989E-03,4.26E-01,1.11E+01
2.18E+03,4.4382E+02,2.61E+01,-9.78E-01,1.72219E-04,1.34362E-03,1.72219E-03,4.29E-01,1.12E+01
2.19E+03,4.4363E+02,2.61E+01,-9.21E-01,1.71332E-04,1.26984E-03,1.71332E-03,4.36E-01,1.14E+01
2.20E+03,4.4345E+02,2.61E+01,-9.70E-01,1.70526E-04,1.17712E-03,1.70526E-03,4.30E-01,1.13E+01
2.21E+03,4.4323E+02,2.62E+01,-1.12E+00,1.69634E-04,1.22960E-03,1.69634E-03,4.32E-01,1.13E+01
2.22E+03,4.4301E+02,2.62E+01,-1.07E+00,1.68695E-04,1.65905E-03,1.68695E-03,4.33E-01,1.13E+01
2.23E+03,4.4283E+02,2.62E+01,-9.70E-01,1.67833E-04,1.32909E-03,1.67833E-03,4.36E-01,1.14E+01
2.25E+03,4.4264E+02,2.62E+01,-9.64E-01,1.67066E-04,1.06069E-03,1.67066E-03,4.31E-01,1.13E+01
2.26E+03,4.4245E+02,2.62E+01,-9.67E-01,1.66270E-04,1.36267E-03,1.66270E-03,4.20E-01,1.10E+01
2.27E+03,4.4222E+02,2.62E+01,-1.10E+00,1.65296E-04,1.34231E-03,1.65296E-03,4.26E-01,1.12E+01
2.28E+03,4.4200E+02,2.62E+01,-9.71E-01,1.64424E-04,1.39492E-03,1.64424E-03,4.43E-01,1.16E+01
2.29E+03,4.4184E+02,2.62E+01,-8.57E-01,1.63704E-04,1.32334E-03,1.63704E-03,4.43E-01,1.16E+01
2.31E+03,4.4164E+02,2.63E+01,-1.07E+00,1.62729E-04,1.38341E-03,1.62729E-03,4.42E-01,1.16E+01
2.32E+03,4.4139E+02,2.63E+01,-1.08E+00,1.61787E-04,1.32545E-03,1.61787E-03,4.32E-01,1.13E+01
2.33E+03,4.4121E+02,2.63E+01,-1.05E+00,1.61037E-04,1.53483E-03,1.61037E-03,4.23E-01,1.11E+01
2.34E+03,4.4100E+02,2.63E+01,-9.72E-01,1.60156E-04,1.24327E-03,1.60156E-03,4.33E-01,1.14E+01
2.35E+03,4.4084E+02,2.63E+01,-9.60E-01,1.59505E-04,1.35133E-03,1.59505E-03,4.34E-01,1.14E+01
2.37E+03,4.4062E+02,2.63E+01,-9.28E-01,1.58606E-04,1.38154E-03,1.58606E-03,4.36E-01,1.15E+01
2.38E+03,4.4043E+02,2.63E+01,-1.03E+00,1.57808E-04,1.28982E-03,1.57808E-03,4.39E-01,1.16E+01
2.39E+03,4.4023E+02,2.63E+01,-9.80E-01,1.56983E-04,1.37102E-03,1.56983E-03,4.36E-01,1.15E+01
2.40E+03,4.4004E+02,2.63E+01,-1.03E+00,1.56196E-04,1.30392E-03,1.56196E-03,4.34E-01,1.14E+01
2.42E+03,4.3984E+02,2.64E+01,-9.28E-01,1.55423E-04,1.28303E-03,1.55423E-03,4.24E-01,1.12E+01
2.43E+03,4.3963E+02,2.64E+01,-1.13E+00,1.54551E-04,1.30059E-03,1.54551E-03,4.24E-01,1.12E+01
2.44E+03,4.3941E+02,2.64E+01,-1.03E+00,1.53755E-04,1.36144E-03,1.53755E-03,4.39E-01,1.16E+01
2.45E+03,4.3921E+02,2.64E+01,-8.70E-01,1.52920E-04,1.42077E-03,1.52920E-03,4.36E-01,1.15E+01
2.46E+03,4.3904E+02,2.64E+01,-1.08E+00,1.52134E-04,1.23583E-03,1.52134E-03,3.64E-01,9.60E+00
2.48E+03,4.3883E+02,2.64E+01,-9.58E-01,1.51403E-04,1.03559E-03,1.51403E-03,3.62E-01,9.57E+00
2.49E+03,4.3864E+02,2.64E+01,-1.06E+00,1.51306E-04,1.18440E-03,1.51306E-03,3.91E-01,1.03E+01
2.50E+03,4.3840E+02,2.64E+01,-8.75E-01,1.50008E-04,2.02526E-03,1.50008E-03,4.48E-01,1.19E+01
2.51E+03,4.3826E+02,2.65E+01,-9.70E-01,1.49290E-04,1.43215E-03,1.49290E-03,4.97E-01,1.32E+01
2.52E+03,4.3804E+02,2.65E+01,-9.80E-01,1.48434E-04,1.32906E-03,1.48434E-03,4.25E-01,1.13E+01
2.54E+03,4.3784E+02,2.65E+01,-1.18E+00,1.47695E-04,1.11124E-03,1.47695E-03,4.03E-01,1.07E+01
